Time [s],Engine speed [RPM],BMEP [bar]
0,743.3921,0
0.1,743.8565711,0
0.2,744.3265066,0
0.3,744.8182996,0
0.4,745.3100925,0
0.5,745.8018855,0
0.6,746.2936784,0
0.7,746.7854714,0
0.8,747.2772644,0
0.9,747.7690573,3.92E-18
1,748.2608503,0.003530096
1.1,748.7315874,0.008614867
1.2,749.1181015,0.019918338
1.3,749.3930477,0.020766994
1.4,749.5006421,0.005933427
1.5,749.6082366,0
1.6,749.715831,0
1.7,749.8234255,0
1.8,749.9310199,0
1.9,750.0386144,0
2,750.1462088,0
2.1,750.2538033,0
2.2,750.3613978,0
2.3,750.4689922,0
2.4,750.6218906,0
2.5,750.8049915,0
2.6,751.0215395,0
2.7,751.2464492,0
2.8,751.4713589,0
2.9,751.6962686,0
3,751.9211783,0
3.1,752.146088,0
3.2,752.3709977,0
3.3,752.5959074,0
3.4,752.8208171,0
3.5,753.0457268,0
3.6,753.2706365,0
3.7,753.6186889,0
3.8,753.9691424,0
3.9,754.3292006,0
4,754.6892588,0
4.1,755.0493171,0
4.2,755.4093753,0
4.3,755.7694335,0
4.4,756.1294917,0.001128099
4.5,756.4895499,0.002538223
4.6,756.8496082,0.030928278
4.7,757.2144796,0.063532888
4.8,757.5986039,0.11299572
4.9,758.0174883,0.192895162
5,758.4885128,0.318449518
5.1,758.9595372,0.444003874
5.2,759.4305617,0.56955823
5.3,759.9015862,0.695112586
5.4,760.3726106,0.820666942
5.5,760.8436351,0.946221298
5.6,761.3146596,1.071775655
5.7,761.785684,1.197330011
5.8,762.2567085,1.322884367
5.9,762.727733,1.448438723
6,763.0057268,1.497404277
6.1,763.1550335,1.495310629
6.2,762.9962295,1.370967822
6.3,762.7603978,1.216062725
6.4,762.524566,1.061157628
6.5,762.2887343,0.906252531
6.6,762.0529026,0.751347434
6.7,761.8170709,0.596442337
6.8,761.5812392,0.44153724
6.9,761.3454074,0.286632143
7,761.1095757,0.131727046
7.1,760.873744,0.055970015
7.2,760.6379123,0
7.3,760.7816124,0
7.4,760.947529,0
7.5,761.2023112,0
7.6,761.4570934,0
7.7,761.7118756,0
7.8,761.9666578,0
7.9,762.22144,0
8,762.4762222,0
8.1,762.7310045,0
8.2,762.9857867,0
8.3,763.243808,0
8.4,763.514786,0
8.5,763.8859244,0.043759411
8.6,764.4073033,0.153157938
8.7,764.9286822,0.280331765
8.8,765.4500611,0.419355791
8.9,765.97144,0.558379817
9,766.492819,0.697403843
9.1,767.0141979,0.836427869
9.2,767.5355768,0.975451895
9.3,768.0569557,1.114475921
9.4,768.5783347,1.253499947
9.5,769.0997136,1.392523973
9.6,769.416643,1.45677704
9.7,769.5972727,1.471182802
9.8,769.4176944,1.353853848
9.9,769.1480641,1.203591215
10,768.8784338,1.053328582
10.1,768.6088035,0.903065948
10.2,768.3391732,0.752803315
10.3,768.0695429,0.602540682
10.4,767.7999126,0.452278049
10.5,767.5302823,0.302015416
10.6,767.260652,0.151752783
10.7,766.9910217,0.067611253
10.8,766.7213914,0
10.9,775.7765349,0
11,785.7075128,0
11.1,799.1418283,0
11.2,812.5761439,0
11.3,826.0104594,0
11.4,839.444775,0
11.5,852.8790905,0
11.6,866.3134061,0
11.7,879.7477216,0
11.8,893.1820372,0
11.9,906.6163527,0
12,920.0506682,0
12.1,920.2022072,0.116822903
12.2,900.4295812,0.40888016
12.3,871.1992613,0.883492901
12.4,835.6638122,1.479809297
12.5,800.128363,2.076125694
12.6,764.5929139,2.67244209
12.7,469.0785688,4.094490865
12.8,250.1462959,5.249568728
12.9,337.5423118,5.336762941
13,424.9383278,5.423957155
13.1,512.3343437,5.511151368
13.2,564.4731879,5.441959872
13.3,593.107251,5.268511235
13.4,614.0168181,5.060800043
13.5,632.9952611,4.844523212
13.6,651.9737042,4.628246381
13.7,670.9521472,4.411969551
13.8,689.9305903,4.19569272
13.9,708.9090334,3.979415889
14,727.8874764,3.763139058
14.1,681.0050046,4.133627813
14.2,590.2152563,4.895293624
14.3,573.2374123,5.143212476
14.4,574.7125444,5.262694589
14.5,623.2637416,5.052446626
14.6,670.95551,4.849124438
14.7,715.2095632,4.673505351
14.8,754.2757332,4.539693234
14.9,785.5600782,4.468591571
15,816.8444232,4.397489908
15.1,848.1287681,4.326388245
15.2,880.3287213,4.312149395
15.3,912.7575765,4.312126247
15.4,945.502118,4.331708448
15.5,978.2466596,4.351290648
15.6,1010.991201,4.370872849
15.7,1043.837942,4.396852062
15.8,1076.83798,4.432426794
15.9,1109.94445,4.474663475
16,1143.121874,4.521341456
16.1,1176.299299,4.568019436
16.2,1209.476723,4.614697417
16.3,1244.145629,4.662208076
16.4,1279.112851,4.709885282
16.5,1315.273338,4.758228676
16.6,1351.433826,4.806572069
16.7,1387.594313,4.854915462
16.8,1424.874131,4.928207236
16.9,1462.900168,5.018131265
17,1501.674518,5.124734161
17.1,1540.635945,5.235506774
17.2,1579.597373,5.346279387
17.3,1619.557036,5.452821828
17.4,1663.50964,5.542443582
17.5,1707.711804,5.631007794
17.6,1752.288306,5.717985691
17.7,1796.864808,5.804963588
17.8,1841.44131,5.891941484
17.9,1886.9906,5.911577715
18,1932.783087,5.914378529
18.1,1978.730021,5.906487629
18.2,2024.676956,5.898596729
18.3,2070.62389,5.89070583
18.4,2094.853532,5.544286209
18.5,2086.507235,4.690073508
18.6,2074.883764,3.78477629
18.7,2061.075511,2.845422727
18.8,2047.267258,1.906069164
18.9,2033.459005,0.966715601
19,2005.155211,0.429651378
19.1,1953.658552,0.392000684
19.2,1809.390433,2.352004106
19.3,1665.122314,4.34085741
19.4,1520.854195,6.372985539
19.5,1470.13011,6.998406141
19.6,1481.768712,6.686021723
19.7,1504.405443,6.208248354
19.8,1529.791706,5.689127747
19.9,1547.183416,5.317839242
20,1564.373247,4.950283792
20.1,1580.755564,4.597660568
20.2,1595.305925,4.285597263
20.3,1607.108351,4.034373834
20.4,1617.477435,3.8148849
20.5,1626.890958,3.616552296
20.6,1636.304482,3.418219692
20.7,1645.718005,3.219887087
20.8,1651.485932,3.093810499
20.9,1657.246743,2.967874969
21,1662.979086,2.842503673
21.1,1668.657589,2.718260559
21.2,1674.25533,2.595709718
21.3,1678.211437,2.507557739
21.4,1681.073121,2.442338334
21.5,1683.934806,2.377118929
21.6,1686.796491,2.311899523
21.7,1689.658175,2.246680118
21.8,1692.432958,2.19143583
21.9,1694.860136,2.176092011
22,1697.177641,2.173337304
22.1,1699.330634,2.189466264
22.2,1701.483627,2.205595224
22.3,1703.63662,2.221724184
22.4,1706.013267,2.237867749
22.5,1708.445826,2.254014965
22.6,1711.112948,2.2701775
22.7,1713.780071,2.286340034
22.8,1716.447193,2.302502568
22.9,1719.089375,2.313196206
23,1721.694147,2.315686499
23.1,1724.22929,2.302908478
23.2,1726.718014,2.279951581
23.3,1729.206738,2.256994684
23.4,1731.695462,2.234037787
23.5,1734.105993,2.226327106
23.6,1736.468177,2.228043343
23.7,1738.636972,2.267467252
23.8,1740.805768,2.306891162
23.9,1742.974563,2.346315072
24,1745.532041,2.403790352
24.1,1748.348642,2.47329988
24.2,1753.528088,2.652545625
24.3,1759.298245,2.859225425
24.4,1765.068403,3.065905225
24.5,1771.063967,3.257815931
24.6,1777.96116,3.39065026
24.7,1785.451895,3.484594542
24.8,1793.832945,3.520203753
24.9,1802.213995,3.555812964
25,1810.595044,3.591422175
25.1,1818.837994,3.608177358
25.2,1827.046418,3.620219034
25.3,1834.888845,3.582293319
25.4,1842.731272,3.544367604
25.5,1850.573698,3.506441889
25.6,1858.395149,3.477363552
25.7,1866.185134,3.46155628
25.8,1873.847778,3.499458426
25.9,1881.425527,3.573166849
26,1889.003276,3.646875272
26.1,1896.581025,3.720583695
26.2,1904.896514,3.805429572
26.3,1913.685042,3.897416786
26.4,1924.365725,4.017969348
26.5,1935.046408,4.138521909
26.6,1945.727091,4.25907447
26.7,1956.652719,4.374683396
26.8,1967.741645,4.486996566
26.9,1980.145336,4.572774365
27,1992.877719,4.651918322
27.1,2005.610102,4.731062278
27.2,2018.342485,4.810206235
27.3,2031.074868,4.889350192
27.4,2044.40218,4.953767209
27.5,2058.621885,4.996093817
27.6,2072.862614,5.037899999
27.7,2087.117359,5.07935923
27.8,2101.372104,5.120818461
27.9,2115.626849,5.162277692
28,2130.364442,5.181505908
28.1,2145.112681,5.200243972
28.2,2159.903503,5.217021425
28.3,2174.694325,5.233798879
28.4,2189.485147,5.250576332
28.5,2204.346062,5.261166985
28.6,2219.253704,5.267633105
28.7,2234.193903,5.271225621
28.8,2249.14224,5.274099736
28.9,2264.090578,5.276973852
29,2262.456754,5.352836299
29.1,2194.494283,5.720652072
29.2,2102.894403,6.192510682
29.3,1975.838407,6.820433548
29.4,1848.782412,7.448356414
29.5,1721.726416,8.07627928
29.6,1594.67042,8.704202146
29.7,1467.614425,9.332125012
29.8,1482.249485,8.920470008
29.9,1497.024401,8.504921427
30,1512.358739,8.073798536
30.1,1526.234581,7.625718146
30.2,1537.922679,7.152201508
30.3,1549.354116,6.696102932
30.4,1560.614445,6.251616397
30.5,1569.082987,5.996591345
30.6,1576.853583,5.788931665
30.7,1584.624179,5.581271984
30.8,1592.173888,5.378317385
30.9,1598.840055,5.194183115
31,1605.050225,5.019762006
31.1,1610.5764,4.859910642
31.2,1616.102576,4.700059277
31.3,1621.628751,4.540207912
31.4,1626.2909,4.428832256
31.5,1630.737041,4.329575527
31.6,1634.670142,4.259102641
31.7,1638.603242,4.188629755
31.8,1642.536343,4.118156869
31.9,1646.375028,4.048343083
32,1650.072089,3.979517947
32.1,1653.355908,3.913577593
32.2,1656.364231,3.849560426
32.3,1659.372553,3.785543259
32.4,1662.380876,3.721526092
32.5,1665.389199,3.657508925
32.6,1668.325118,3.599495608
32.7,1670.971419,3.565497691
32.8,1673.566182,3.535773333
32.9,1676.083639,3.512459314
33,1678.601096,3.489145295
33.1,1681.118553,3.465831276
33.2,1683.551198,3.443491296
33.3,1685.962642,3.421394825
33.4,1688.179753,3.401530222
33.5,1690.396864,3.38166562
33.6,1692.613975,3.361801017
33.7,1694.802677,3.338070158
33.8,1696.948765,3.308539914
33.9,1698.85348,3.246160806
34,1700.597279,3.161882454
34.1,1702.341079,3.077604101
34.2,1704.084878,2.993325749
34.3,1705.750972,2.912253141
34.4,1707.252548,2.837967732
34.5,1708.096055,2.790831114
34.6,1708.939561,2.743694496
34.7,1709.783068,2.696557879
34.8,1710.626574,2.649421261
34.9,1711.470081,2.602284643
35,1711.89179,2.527871777
35.1,1712.208049,2.446639848
35.2,1712.17069,2.342540579
35.3,1712.13333,2.23844131
35.4,1712.095971,2.134342042
35.5,1711.904165,2.029634022
35.6,1711.480689,1.924012875
35.7,1710.78457,1.817317108
35.8,1709.90669,1.709904928
35.9,1709.02881,1.602492748
36,1708.15093,1.495080568
36.1,1706.641224,1.338692973
36.2,1704.852651,1.160689185
36.3,1701.948606,0.896220625
36.4,1699.044561,0.631752066
36.5,1696.140516,0.367283506
36.6,1692.065992,0.184478866
36.7,1687.211147,0.05611684
36.8,1681.797115,0.016913575
36.9,1676.243287,0
37,1670.689458,0
37.1,1664.689704,0
37.2,1656.906245,0
37.3,1648.623811,0
37.4,1639.592916,0
37.5,1630.562021,0
37.6,1621.531125,0
37.7,1612.26258,0
37.8,1602.934621,0
37.9,1592.52311,0
38,1582.111598,0
38.1,1571.700086,0
38.2,1561.288574,0
38.3,1550.877063,0
38.4,1540.194958,0
38.5,1529.332459,0
38.6,1518.380588,0
38.7,1507.406374,0
38.8,1496.43216,0
38.9,1485.509016,0
39,1474.790155,0
39.1,1464.241571,0
39.2,1453.9484,0
39.3,1443.655229,0
39.4,1433.362058,0
39.5,1423.068888,0
39.6,1412.775717,0
39.7,1403.240689,0
39.8,1393.711732,0
39.9,1384.207062,0
40,1374.702391,0
40.1,1365.197721,0
40.2,1355.833473,0
40.3,1346.562841,0
40.4,1337.446813,0
40.5,1328.369436,0
40.6,1319.292059,0
40.7,1310.194409,0
40.8,1301.015668,0
40.9,1291.527821,0
41,1281.576317,0
41.1,1271.624813,0
41.2,1261.673309,0
41.3,1251.721806,0
41.4,1241.770302,0
41.5,1230.404994,0
41.6,1218.920407,0
41.7,1206.958708,0
41.8,1194.997008,0
41.9,1183.035309,0
42,1166.60295,0
42.1,1147.190152,0
42.2,1113.159825,0
42.3,1075.475116,0
42.4,1037.790407,0
42.5,1000.105697,0
42.6,962.4209881,0
42.7,925.572074,0
42.8,889.9768525,0
42.9,870.5470569,0
43,861.894212,0
43.1,853.241367,0.020407195
43.2,844.588522,0.045916188
43.3,835.935677,0.112396226
43.4,827.2828321,0.178876265
43.5,818.6299871,0.245356303
43.6,809.9771421,0.311836342
43.7,801.3242971,0.37831638
43.8,792.6714522,0.444796419
43.9,784.0186072,0.511276457
44,778.4204691,0.536750696
44.1,773.5860078,0.551973485
44.2,773.5480015,0.502809581
44.3,773.5099952,0.453645678
44.4,773.471989,0.404481775
44.5,773.4339827,0.355317871
44.6,773.3959764,0.306153968
44.7,773.3579701,0.256990065
44.8,773.3199638,0.207826161
44.9,773.2819575,0.158662258
45,773.2439512,0.109498355
45.1,773.2059449,0.060334451
45.2,773.1759492,0.018669625
45.3,773.1779959,0.00700111
45.4,773.1876878,0
45.5,773.2088478,0
45.6,773.2300078,0
45.7,773.2511678,0
45.8,773.2723277,0
45.9,773.2934877,0
46,773.3146477,0
46.1,773.3358077,0
46.2,773.3569676,0
46.3,773.3781276,0
46.4,773.3992876,0
46.5,773.4720185,0
46.6,773.57913,0
46.7,773.692011,0
46.8,773.8063344,0
46.9,773.9206578,0
47,774.0349812,0
47.1,774.1493046,0
47.2,774.263628,0
47.3,774.3779514,0
47.4,774.4922748,0
47.5,774.6065982,0
47.6,774.7557146,0
47.7,774.9135292,3.86E-15
47.8,775.4301766,0.054340007
47.9,775.946824,0.130379057
48,776.4634713,0.293214278
48.1,776.9801187,0.456049498
48.2,777.496766,0.618884718
48.3,778.0134134,0.781719938
48.4,778.5300608,0.944555158
48.5,779.0467081,1.107390378
48.6,779.5633555,1.270225598
48.7,780.0800029,1.433060818
48.8,780.5665707,1.582418992
48.9,780.9328202,1.677868977
49,781.2025555,1.730076041
49.1,781.3275194,1.717418723
49.2,781.4524832,1.704761405
49.3,781.577447,1.692104087
49.4,781.7024109,1.679446769
49.5,781.8273747,1.666789451
49.6,781.9523385,1.654132133
49.7,782.0773024,1.641474815
49.8,782.2022662,1.628817497
49.9,782.32723,1.616160179
50,782.4521939,1.60350286
50.1,782.3940201,1.533790495
50.2,782.2137547,1.426041431
50.3,781.9479178,1.29163329
50.4,781.6606882,1.15056038
50.5,781.3734585,1.00948747
50.6,781.0862289,0.86841456
50.7,780.7989992,0.727341651
50.8,780.5117695,0.586268741
50.9,780.2245399,0.445195831
51,779.9373102,0.304122921
51.1,779.6500805,0.163050011
51.2,779.3658141,0.074908572
51.3,779.0822886,5.06E-15
51.4,779.5676387,0.07123945
51.5,780.0529889,0.155446014
51.6,780.538339,0.291521032
51.7,781.0236892,0.42759605
51.8,781.5090393,0.563671069
51.9,781.9943895,0.699746087
52,782.4797397,0.835821105
52.1,782.9650898,0.971896124
52.2,783.45044,1.107971142
52.3,783.9357901,1.24404616
52.4,784.3983179,1.372900244
52.5,784.7695562,1.472870592
52.6,785.021319,1.535039224
52.7,785.0938684,1.540505283
52.8,785.1664179,1.545971341
52.9,785.2389674,1.551437399
53,785.3115169,1.556903457
53.1,785.3840663,1.562369515
53.2,785.4566158,1.567835573
53.3,785.5291653,1.573301631
53.4,785.6017148,1.578767689
53.5,785.6742642,1.584233747
53.6,785.7468137,1.589699805
53.7,785.8248893,1.592085141
53.8,785.9066489,1.592416662
53.9,785.9965541,1.588207159
54,786.0884956,1.582862401
54.1,786.1804372,1.577517642
54.2,786.2723788,1.572172884
54.3,786.3643203,1.566828126
54.4,786.4562619,1.561483367
54.5,786.5482034,1.556138609
54.6,786.640145,1.55079385
54.7,786.7320866,1.545449092
54.8,786.8240281,1.540104333
54.9,786.9159697,1.534759575
55,796.1205173,1.534063773
55.1,806.2604573,1.533845177
55.2,820.1419667,1.535535409
55.3,834.0234761,1.537225641
55.4,847.9049856,1.538915873
55.5,861.786495,1.540606105
55.6,875.6680044,1.542296337
55.7,889.5495138,1.543986569
55.8,903.4310232,1.545676801
55.9,917.3125326,1.547367033
56,932.2467127,1.552467897
56.1,951.3915758,1.571211291
56.2,988.1923458,1.647159473
56.3,1051.476976,1.80891484
56.4,1100.058123,1.935576796
56.5,1138.836946,2.038843144
56.6,1155.100145,2.088370526
56.7,1165.734438,2.124463166
56.8,1176.36873,2.160555806
56.9,1186.243543,2.175665551
57,1193.080437,2.106843712
57.1,1199.822883,2.035412492
57.2,1206.423659,1.9600672
57.3,1213.024435,1.884721909
57.4,1219.625211,1.809376617
57.5,1224.497929,1.772304742
57.6,1228.938633,1.74480122
57.7,1233.145934,1.722467178
57.8,1237.353234,1.700133137
57.9,1241.560534,1.677799095
58,1245.525044,1.662842263
58.1,1249.125366,1.658951245
58.2,1252.68298,1.656357914
58.3,1256.212122,1.654629708
58.4,1259.741265,1.652901501
58.5,1263.270407,1.651173295
58.6,1266.894282,1.678059214
58.7,1270.522411,1.706230087
58.8,1274.167556,1.739540777
58.9,1277.812701,1.772851467
59,1281.457847,1.806162157
59.1,1288.904251,1.916604847
59.2,1298.884827,2.078468868
59.3,1309.971274,2.262772302
59.4,1321.334189,2.452685589
59.5,1332.697104,2.642598876
59.6,1345.205528,2.800907095
59.7,1362.295991,2.832795043
59.8,1379.392413,2.864518569
59.9,1396.497775,2.895995463
60,1413.54293,2.925290752
60.1,1430.547947,2.953131638
60.2,1444.500875,2.87037925
60.3,1457.690781,2.759978544
60.4,1470.880687,2.649577837
60.5,1483.989607,2.540523828
60.6,1496.774587,2.436856608
60.7,1508.054983,2.358208982
60.8,1517.078503,2.317090748
60.9,1526.102024,2.275972514
61,1535.125545,2.234854279
61.1,1544.149065,2.193736045
61.2,1553.172586,2.152617811
61.3,1560.864039,2.134836662
61.4,1568.484437,2.118300377
61.5,1575.82061,2.106743547
61.6,1583.156784,2.095186716
61.7,1590.492957,2.083629885
61.8,1597.552767,2.0711735
61.9,1604.428335,2.058117412
62,1611.190009,2.044690598
62.1,1617.923208,2.031171103
62.2,1624.656407,2.017651608
62.3,1631.209784,2.003419354
62.4,1637.04387,1.986336061
62.5,1642.751616,1.968751997
62.6,1648.269852,1.950416777
62.7,1653.788088,1.932081556
62.8,1659.306324,1.913746335
62.9,1664.729244,1.919183554
63,1670.128334,1.930563884
63.1,1675.480685,1.953601139
63.2,1680.833036,1.976638393
63.3,1686.185387,1.999675648
63.4,1691.969466,2.02278927
63.5,1698.401135,2.046017444
63.6,1705.065027,2.069286696
63.7,1711.883733,2.092583333
63.8,1718.702438,2.11587997
63.9,1725.521144,2.139176606
64,1732.75513,2.149337657
64.1,1740.026422,2.158318715
64.2,1747.446935,2.162579802
64.3,1754.867448,2.16684089
64.4,1762.287961,2.171101978
64.5,1769.696751,2.17252644
64.6,1777.097725,2.172059817
64.7,1784.488804,2.169198714
64.8,1791.877409,2.16573899
64.9,1799.266013,2.162279267
65,1806.512914,2.156032954
65.1,1813.192996,2.138640283
65.2,1819.617152,2.116214863
65.3,1825.657418,2.086240321
65.4,1831.697684,2.05626578
65.5,1837.73795,2.026291238
65.6,1843.245805,2.00172583
65.7,1848.620557,1.978512704
65.8,1853.278015,1.962587049
65.9,1857.935474,1.946661393
66,1862.592933,1.930735737
66.1,1867.121668,1.916016083
66.2,1871.457316,1.90310543
66.3,1875.517647,1.89277419
66.4,1879.394433,1.884162559
66.5,1883.271219,1.875550927
66.6,1887.148005,1.866939295
66.7,1891.093502,1.876287277
66.8,1895.066255,1.892759452
66.9,1899.148032,1.937728396
67,1903.229809,1.982697341
67.1,1907.311586,2.027666285
67.2,1912.898404,2.099549326
67.3,1919.488582,2.189375098
67.4,1928.738832,2.326769971
67.5,1938.654099,2.476057119
67.6,1948.569367,2.625344267
67.7,1959.379781,2.772471035
67.8,1973.770777,2.910956283
67.9,1989.098275,3.047181341
68,2005.830527,3.180016112
68.1,2022.562778,3.312850884
68.2,2039.29503,3.445685655
68.3,2059.793111,3.548347869
68.4,2081.232649,3.643466944
68.5,2104.386847,3.724847832
68.6,2127.541045,3.80622872
68.7,2150.695243,3.887609609
68.8,2169.626493,3.763504968
68.9,2182.223321,3.331172034
69,2189.262167,2.628391887
69.1,2192.595693,1.745313598
69.2,2195.92922,0.871498856
69.3,2199.262746,0
69.4,2104.548337,0.619186508
69.5,1999.337961,1.402744929
69.6,1852.143717,2.843791007
69.7,1704.949474,4.284837085
69.8,1557.755231,5.725883163
69.9,1486.847949,6.491720319
70,1466.798643,6.807418193
70.1,1484.169119,6.791917001
70.2,1510.89454,6.693616043
70.3,1536.078541,6.618705804
70.4,1560.797591,6.550851079
70.5,1583.656841,6.511218407
70.6,1606.516092,6.471585736
70.7,1629.375342,6.431953064
70.8,1651.903828,6.387272778
70.9,1674.211805,6.339227415
71,1694.888126,6.266282243
71.1,1715.156533,6.187112119
71.2,1735.424941,6.107941995
71.3,1755.607704,6.030140651
71.4,1775.447893,5.957814426
71.5,1794.602695,5.896442242
71.6,1812.729416,5.851501121
71.7,1830.856137,5.80656
71.8,1848.982858,5.761618879
71.9,1867.109579,5.716677758
72,1885.236299,5.671736637
72.1,1900.71733,5.52389108
72.2,1916.097885,5.372137501
72.3,1931.076537,5.204751835
72.4,1946.055188,5.037366169
72.5,1961.033839,4.869980504
72.6,1974.331845,4.745408015
72.7,1986.509421,4.649377644
72.8,1998.651459,4.554252553
72.9,2010.784613,4.459353783
73,2022.917767,4.364455013
73.1,2034.66309,4.271097042
73.2,2044.857087,4.183902263
73.3,2054.654913,4.098281415
73.4,2063.858482,4.015021461
73.5,2073.062052,3.931761508
73.6,2082.265621,3.848501555
73.7,2091.061489,3.77361821
73.8,2099.755431,3.700829017
73.9,2107.321791,3.65120706
74,2114.888151,3.601585103
74.1,2122.454511,3.551963146
74.2,2130.020871,3.502341189
74.3,2137.58723,3.452719231
74.4,2144.476821,3.411587443
74.5,2150.915231,3.376115768
74.6,2157.274998,3.34163069
74.7,2163.615104,3.307392262
74.8,2169.95521,3.273153833
74.9,2176.225214,3.244902405
75,2182.214815,3.240598983
75.1,2188.169946,3.239239335
75.2,2194.073375,3.242295349
75.3,2199.976805,3.245351363
